 ################################################ 
 # CALCULS POUR LA LONGUEUR D'ONDE DE REFERENCE # 
 ################################################ 
 
 ANGLES UTILISES
 ****************
  
 Nombre d'angles au total :  40
 Nombre d'angles de Gauss :  40
  
 Pas de fichier d'angles complementaires
  
 Ordre max NB  80
  
  
 Liste des angles utilises :
    Indice, mu, angle (degres), poids
 -40 -0.99955382265163E+00   -1.712   0.11449500031887E-02
 -39 -0.99764986439824E+00   -3.929   0.26635335895143E-02
 -38 -0.99422754096569E+00   -6.159   0.41803131246912E-02
 -37 -0.98929130249976E+00   -8.393   0.56909224514043E-02
 -36 -0.98284857273863E+00  -10.627   0.71929047681184E-02
 -35 -0.97490914058573E+00  -12.862   0.86839452692619E-02
 -34 -0.96548508904380E+00  -15.097   0.10161766041103E-01
 -33 -0.95459076634363E+00  -17.333   0.11624114120797E-01
 -32 -0.94224276130987E+00  -19.568   0.13068761592400E-01
 -31 -0.92845987717245E+00  -21.804   0.14493508040509E-01
 -30 -0.91326310257176E+00  -24.040   0.15896183583725E-01
 -29 -0.89667557943877E+00  -26.276   0.17274652056270E-01
 -28 -0.87872256767821E+00  -28.511   0.18626814208300E-01
 -27 -0.85943140666311E+00  -30.747   0.19950610878142E-01
 -26 -0.83883147358026E+00  -32.983   0.21244026115782E-01
 -25 -0.81695413868146E+00  -35.219   0.22505090246332E-01
 -24 -0.79383271750461E+00  -37.455   0.23731882865930E-01
 -23 -0.76950242013504E+00  -39.691   0.24922535764116E-01
 -22 -0.74400029758360E+00  -41.927   0.26075235767565E-01
 -21 -0.71736518536210E+00  -44.163   0.27188227500486E-01
 -20 -0.68963764434203E+00  -46.399   0.28259816057277E-01
 -19 -0.66085989898612E+00  -48.635   0.29288369583267E-01
 -18 -0.63107577304687E+00  -50.870   0.30272321759558E-01
 -17 -0.60033062282975E+00  -53.106   0.31210174188115E-01
 -16 -0.56867126812271E+00  -55.342   0.32100498673488E-01
 -15 -0.53614592089713E+00  -57.578   0.32941939397646E-01
 -14 -0.50280411188878E+00  -59.814   0.33733214984612E-01
 -13 -0.46869661517054E+00  -62.050   0.34473120451754E-01
 -12 -0.43387537083176E+00  -64.286   0.35160529044748E-01
 -11 -0.39839340588197E+00  -66.522   0.35794393953416E-01
 -10 -0.36230475349949E+00  -68.758   0.36373749905836E-01
  -9 -0.32566437074770E+00  -70.994   0.36897714638276E-01
  -8 -0.28852805488451E+00  -73.230   0.37365490238731E-01
  -7 -0.25095235839227E+00  -75.466   0.37776364362001E-01
  -6 -0.21299450285767E+00  -77.702   0.38129711314478E-01
  -5 -0.17471229183265E+00  -79.938   0.38424993006959E-01
  -4 -0.13616402280914E+00  -82.174   0.38661759774076E-01
  -3 -0.97408398441585E-01  -84.410   0.38839651059052E-01
  -2 -0.58504437152421E-01  -86.646   0.38958395962770E-01
  -1 -0.19511383256794E-01  -88.882   0.39017813656307E-01
   1  0.19511383256794E-01   88.882   0.39017813656307E-01
   2  0.58504437152421E-01   86.646   0.38958395962770E-01
   3  0.97408398441585E-01   84.410   0.38839651059052E-01
   4  0.13616402280914E+00   82.174   0.38661759774076E-01
   5  0.17471229183265E+00   79.938   0.38424993006959E-01
   6  0.21299450285767E+00   77.702   0.38129711314478E-01
   7  0.25095235839227E+00   75.466   0.37776364362001E-01
   8  0.28852805488451E+00   73.230   0.37365490238731E-01
   9  0.32566437074770E+00   70.994   0.36897714638276E-01
  10  0.36230475349949E+00   68.758   0.36373749905836E-01
  11  0.39839340588197E+00   66.522   0.35794393953416E-01
  12  0.43387537083176E+00   64.286   0.35160529044748E-01
  13  0.46869661517054E+00   62.050   0.34473120451754E-01
  14  0.50280411188878E+00   59.814   0.33733214984612E-01
  15  0.53614592089713E+00   57.578   0.32941939397646E-01
  16  0.56867126812271E+00   55.342   0.32100498673488E-01
  17  0.60033062282975E+00   53.106   0.31210174188115E-01
  18  0.63107577304687E+00   50.870   0.30272321759558E-01
  19  0.66085989898612E+00   48.635   0.29288369583267E-01
  20  0.68963764434203E+00   46.399   0.28259816057277E-01
  21  0.71736518536210E+00   44.163   0.27188227500486E-01
  22  0.74400029758360E+00   41.927   0.26075235767565E-01
  23  0.76950242013504E+00   39.691   0.24922535764116E-01
  24  0.79383271750461E+00   37.455   0.23731882865930E-01
  25  0.81695413868146E+00   35.219   0.22505090246332E-01
  26  0.83883147358026E+00   32.983   0.21244026115782E-01
  27  0.85943140666311E+00   30.747   0.19950610878142E-01
  28  0.87872256767821E+00   28.511   0.18626814208300E-01
  29  0.89667557943877E+00   26.276   0.17274652056270E-01
  30  0.91326310257176E+00   24.040   0.15896183583725E-01
  31  0.92845987717245E+00   21.804   0.14493508040509E-01
  32  0.94224276130987E+00   19.568   0.13068761592400E-01
  33  0.95459076634363E+00   17.333   0.11624114120797E-01
  34  0.96548508904380E+00   15.097   0.10161766041103E-01
  35  0.97490914058573E+00   12.862   0.86839452692619E-02
  36  0.98284857273863E+00   10.627   0.71929047681184E-02
  37  0.98929130249976E+00    8.393   0.56909224514043E-02
  38  0.99422754096569E+00    6.159   0.41803131246912E-02
  39  0.99764986439824E+00    3.929   0.26635335895143E-02
  40  0.99955382265163E+00    1.712   0.11449500031887E-02
  
  
 MODELE WMO
 **********
  
 Modele MARITIME
  
   Coefficients alphaK du mélange :
     DUST LIKE       :   0.
     WATER SOLUBLE   :   0.999579198
     OCEANIC         :   0.00042080151
     SOOT            :   0.
  
 Longueur d'onde en microns :   0.55
  
  
 WATER SOLUBLE  
 =============
  
 * ROUTINE GRANU
 ===============
  
 PARAMETRES DE SIMULATIONS
 ------------------------- 
   Fichier MIE : 
 /home/leob/iasb/analysis/src/pomerol/SOS/SOS_TEST/MIE/MIE1.530-0.00600-0.0001-00050.00-MU40                                                                                                                                                                                                                 
   Longueur d'onde en microns :   0.55
   Modele 1 : Distribution Log-Normale
      rm en microns :   0.005
      sig :   0.47567
      sig*ln10 :   1.09527065
  
 RESULTATS
 --------- 
   Coefficient d'extinction non tronque (par micron) :   0.00126051386
   Coefficient de diffusion non tronque (par micron) :   0.00120606587
   Nombre de particules (par unite de volume micron^3) :   2.30602557
   Section efficace d'extinction non tronque (micron^2) :   0.000546617466
   Section efficace de diffusion non tronque (micron^2) :   0.000523006284
   Rayon effectif de la granulometrie (microns) :   0.100115101
   Variance effective de la granulometrie :   2.21162216
  
   1ere colonne : angle de diffusion 
   2eme colonne : fonction de phase initiale 
                  P11(mu) 
   3eme colonne : fonction de phase polarisee initiale 
                  P12(mu) 
   4eme colonne : fonction de phase polarisee initiale 
                  P33(mu) 
  
 178.29    0.3693E+00    0.2271E-02   -0.3691E+00
 176.07    0.3514E+00    0.1066E-01   -0.3483E+00
 173.84    0.3276E+00    0.2245E-01   -0.3168E+00
 171.61    0.3037E+00    0.3514E-01   -0.2813E+00
 169.37    0.2837E+00    0.4711E-01   -0.2468E+00
 167.14    0.2693E+00    0.5731E-01   -0.2158E+00
 164.90    0.2600E+00    0.6498E-01   -0.1891E+00
 162.67    0.2542E+00    0.6962E-01   -0.1661E+00
 160.43    0.2497E+00    0.7112E-01   -0.1463E+00
 158.20    0.2451E+00    0.6980E-01   -0.1291E+00
 155.96    0.2400E+00    0.6627E-01   -0.1143E+00
 153.72    0.2342E+00    0.6119E-01   -0.1016E+00
 151.49    0.2280E+00    0.5512E-01   -0.9057E-01
 149.25    0.2217E+00    0.4851E-01   -0.8091E-01
 147.02    0.2155E+00    0.4166E-01   -0.7235E-01
 144.78    0.2096E+00    0.3478E-01   -0.6464E-01
 142.55    0.2042E+00    0.2799E-01   -0.5756E-01
 140.31    0.1994E+00    0.2139E-01   -0.5091E-01
 138.07    0.1952E+00    0.1501E-01   -0.4457E-01
 135.84    0.1917E+00    0.8855E-02   -0.3840E-01
 133.60    0.1888E+00    0.2933E-02   -0.3230E-01
 131.37    0.1866E+00   -0.2773E-02   -0.2620E-01
 129.13    0.1850E+00   -0.8280E-02   -0.2001E-01
 126.89    0.1842E+00   -0.1361E-01   -0.1365E-01
 124.66    0.1841E+00   -0.1876E-01   -0.7044E-02
 122.42    0.1848E+00   -0.2377E-01   -0.1338E-03
 120.19    0.1861E+00   -0.2864E-01    0.7151E-02
 117.95    0.1883E+00   -0.3337E-01    0.1487E-01
 115.71    0.1913E+00   -0.3800E-01    0.2311E-01
 113.48    0.1951E+00   -0.4252E-01    0.3192E-01
 111.24    0.1999E+00   -0.4694E-01    0.4141E-01
 109.01    0.2056E+00   -0.5126E-01    0.5165E-01
 106.77    0.2124E+00   -0.5549E-01    0.6274E-01
 104.53    0.2203E+00   -0.5964E-01    0.7478E-01
 102.30    0.2295E+00   -0.6370E-01    0.8788E-01
 100.06    0.2399E+00   -0.6767E-01    0.1022E+00
  97.83    0.2519E+00   -0.7156E-01    0.1178E+00
  95.59    0.2654E+00   -0.7535E-01    0.1348E+00
  93.35    0.2807E+00   -0.7902E-01    0.1536E+00
  91.12    0.2979E+00   -0.8258E-01    0.1741E+00
  90.00    0.3073E+00   -0.8430E-01    0.1851E+00
  88.88    0.3173E+00   -0.8599E-01    0.1967E+00
  86.65    0.3390E+00   -0.8926E-01    0.2216E+00
  84.41    0.3633E+00   -0.9238E-01    0.2490E+00
  82.17    0.3906E+00   -0.9533E-01    0.2792E+00
  79.94    0.4211E+00   -0.9810E-01    0.3126E+00
  77.70    0.4552E+00   -0.1006E+00    0.3496E+00
  75.47    0.4932E+00   -0.1029E+00    0.3906E+00
  73.23    0.5358E+00   -0.1049E+00    0.4359E+00
  70.99    0.5834E+00   -0.1066E+00    0.4862E+00
  68.76    0.6365E+00   -0.1080E+00    0.5421E+00
  66.52    0.6960E+00   -0.1089E+00    0.6042E+00
  64.29    0.7624E+00   -0.1095E+00    0.6733E+00
  62.05    0.8367E+00   -0.1097E+00    0.7503E+00
  59.81    0.9199E+00   -0.1094E+00    0.8361E+00
  57.58    0.1013E+01   -0.1086E+00    0.9317E+00
  55.34    0.1117E+01   -0.1072E+00    0.1038E+01
  53.11    0.1234E+01   -0.1053E+00    0.1158E+01
  50.87    0.1364E+01   -0.1027E+00    0.1291E+01
  48.63    0.1510E+01   -0.9951E-01    0.1439E+01
  46.40    0.1674E+01   -0.9570E-01    0.1606E+01
  44.16    0.1857E+01   -0.9126E-01    0.1792E+01
  41.93    0.2063E+01   -0.8616E-01    0.2000E+01
  39.69    0.2292E+01   -0.8043E-01    0.2232E+01
  37.45    0.2550E+01   -0.7408E-01    0.2492E+01
  35.22    0.2837E+01   -0.6716E-01    0.2782E+01
  32.98    0.3158E+01   -0.5973E-01    0.3106E+01
  30.75    0.3517E+01   -0.5187E-01    0.3468E+01
  28.51    0.3917E+01   -0.4368E-01    0.3870E+01
  26.28    0.4363E+01   -0.3527E-01    0.4319E+01
  24.04    0.4859E+01   -0.2679E-01    0.4819E+01
  21.80    0.5413E+01   -0.1844E-01    0.5375E+01
  19.57    0.6028E+01   -0.1051E-01    0.5993E+01
  17.33    0.6714E+01   -0.3385E-02    0.6683E+01
  15.10    0.7477E+01    0.2486E-02    0.7452E+01
  12.86    0.8330E+01    0.6704E-02    0.8310E+01
  10.63    0.9284E+01    0.9080E-02    0.9270E+01
   8.39    0.1035E+02    0.9563E-02    0.1035E+02
   6.16    0.1155E+02    0.8176E-02    0.1155E+02
   3.93    0.1287E+02    0.5216E-02    0.1287E+02
   1.71    0.1414E+02    0.1448E-02    0.1414E+02
  
 OCEANIC        
 =============
  
 * ROUTINE GRANU
 ===============
  
 PARAMETRES DE SIMULATIONS
 ------------------------- 
   Fichier MIE : 
 /home/leob/iasb/analysis/src/pomerol/SOS/SOS_TEST/MIE/MIE1.381-0.00000-0.0001-00800.00-MU40                                                                                                                                                                                                                 
   Longueur d'onde en microns :   0.55
   Modele 1 : Distribution Log-Normale
      rm en microns :   0.3
      sig :   0.39967
      sig*ln10 :   0.920274184
  
 RESULTATS
 --------- 
   Coefficient d'extinction non tronque (par micron) :   8.49313418
   Coefficient de diffusion non tronque (par micron) :   8.49313418
   Nombre de particules (par unite de volume micron^3) :   2.30549452
   Section efficace d'extinction non tronque (micron^2) :   3.68386657
   Section efficace de diffusion non tronque (micron^2) :   3.68386657
   Rayon effectif de la granulometrie (microns) :   2.4918244
   Variance effective de la granulometrie :   1.30641857
  
   1ere colonne : angle de diffusion 
   2eme colonne : fonction de phase initiale 
                  P11(mu) 
   3eme colonne : fonction de phase polarisee initiale 
                  P12(mu) 
   4eme colonne : fonction de phase polarisee initiale 
                  P33(mu) 
  
 178.29    0.5474E+00   -0.2889E-01   -0.3297E+00
 176.07    0.4790E+00    0.2761E-01    0.2230E-01
 173.84    0.4261E+00    0.4363E-01    0.1609E+00
 171.61    0.3941E+00    0.3776E-01    0.1989E+00
 169.37    0.3861E+00    0.2255E-01    0.1951E+00
 167.14    0.3682E+00    0.3320E-02    0.1759E+00
 164.90    0.3447E+00   -0.1792E-01    0.1499E+00
 162.67    0.3210E+00   -0.4232E-01    0.1234E+00
 160.43    0.3064E+00   -0.6360E-01    0.9970E-01
 158.20    0.2979E+00   -0.8517E-01    0.7978E-01
 155.96    0.2952E+00   -0.1035E+00    0.6295E-01
 153.72    0.2952E+00   -0.1174E+00    0.4879E-01
 151.49    0.2936E+00   -0.1242E+00    0.3706E-01
 149.25    0.2832E+00   -0.1158E+00    0.2612E-01
 147.02    0.2547E+00   -0.8890E-01    0.1780E-01
 144.78    0.2113E+00   -0.5239E-01    0.1063E-01
 142.55    0.1697E+00   -0.2546E-01    0.6583E-02
 140.31    0.1382E+00   -0.1010E-01    0.4484E-02
 138.07    0.1151E+00   -0.2448E-02    0.3884E-02
 135.84    0.9893E-01    0.1532E-02    0.3623E-02
 133.60    0.8728E-01    0.3130E-02    0.3527E-02
 131.37    0.7969E-01    0.3613E-02    0.3407E-02
 129.13    0.7428E-01    0.2918E-02    0.3632E-02
 126.89    0.7089E-01    0.2405E-02    0.3970E-02
 124.66    0.6887E-01    0.1315E-02    0.4616E-02
 122.42    0.6791E-01    0.2670E-03    0.5741E-02
 120.19    0.6864E-01   -0.1168E-02    0.6749E-02
 117.95    0.6952E-01   -0.2626E-02    0.8963E-02
 115.71    0.7167E-01   -0.3971E-02    0.1117E-01
 113.48    0.7361E-01   -0.5051E-02    0.1453E-01
 111.24    0.7568E-01   -0.5219E-02    0.1777E-01
 109.01    0.7739E-01   -0.4895E-02    0.2144E-01
 106.77    0.7921E-01   -0.3670E-02    0.2522E-01
 104.53    0.8127E-01   -0.2257E-02    0.2903E-01
 102.30    0.8364E-01   -0.5962E-03    0.3341E-01
 100.06    0.8683E-01    0.1333E-02    0.3789E-01
  97.83    0.9054E-01    0.3419E-02    0.4295E-01
  95.59    0.9516E-01    0.5296E-02    0.4870E-01
  93.35    0.1010E+00    0.7475E-02    0.5500E-01
  91.12    0.1073E+00    0.9895E-02    0.6209E-01
  90.00    0.1110E+00    0.1091E-01    0.6617E-01
  88.88    0.1153E+00    0.1184E-01    0.7056E-01
  86.65    0.1249E+00    0.1431E-01    0.7983E-01
  84.41    0.1353E+00    0.1678E-01    0.9085E-01
  82.17    0.1482E+00    0.1911E-01    0.1036E+00
  79.94    0.1630E+00    0.2177E-01    0.1180E+00
  77.70    0.1795E+00    0.2473E-01    0.1347E+00
  75.47    0.1990E+00    0.2754E-01    0.1534E+00
  73.23    0.2214E+00    0.3071E-01    0.1754E+00
  70.99    0.2464E+00    0.3388E-01    0.2001E+00
  68.76    0.2760E+00    0.3759E-01    0.2291E+00
  66.52    0.3096E+00    0.4108E-01    0.2625E+00
  64.29    0.3477E+00    0.4449E-01    0.3002E+00
  62.05    0.3919E+00    0.4930E-01    0.3440E+00
  59.81    0.4419E+00    0.5250E-01    0.3935E+00
  57.58    0.4994E+00    0.5721E-01    0.4507E+00
  55.34    0.5649E+00    0.6098E-01    0.5157E+00
  53.11    0.6408E+00    0.6529E-01    0.5910E+00
  50.87    0.7273E+00    0.6930E-01    0.6771E+00
  48.63    0.8266E+00    0.7168E-01    0.7757E+00
  46.40    0.9408E+00    0.7631E-01    0.8892E+00
  44.16    0.1071E+01    0.7774E-01    0.1018E+01
  41.93    0.1221E+01    0.8062E-01    0.1167E+01
  39.69    0.1391E+01    0.8201E-01    0.1336E+01
  37.45    0.1589E+01    0.8169E-01    0.1532E+01
  35.22    0.1816E+01    0.8033E-01    0.1757E+01
  32.98    0.2076E+01    0.7539E-01    0.2015E+01
  30.75    0.2383E+01    0.7546E-01    0.2318E+01
  28.51    0.2731E+01    0.7003E-01    0.2662E+01
  26.28    0.3144E+01    0.6065E-01    0.3071E+01
  24.04    0.3635E+01    0.5241E-01    0.3556E+01
  21.80    0.4233E+01    0.3835E-01    0.4149E+01
  19.57    0.4972E+01    0.2833E-01    0.4880E+01
  17.33    0.5940E+01    0.1623E-01    0.5838E+01
  15.10    0.7282E+01    0.2219E-02    0.7162E+01
  12.86    0.9320E+01   -0.3810E-02    0.9172E+01
  10.63    0.1272E+02   -0.4113E-03    0.1254E+02
   8.39    0.1919E+02    0.2003E-01    0.1900E+02
   6.16    0.3364E+02    0.4676E-01    0.3347E+02
   3.93    0.7411E+02    0.7491E-01    0.7399E+02
   1.71    0.2397E+03    0.1201E+00    0.2397E+03
  
  
  
 ================================
 * ROUTINE AEROSOLS : RESULTATS *
 ================================
  
  
   Calcul avec troncature 
  
   Coefficient de troncature :   0.496075502
   Section efficace d'extinction non tronque (micron^2) :   0.00209656407
   Section efficace de diffusion non tronque (micron^2) :   0.00207296282
   Albedo de simple diffusion tronque :   0.985085073
   Albedo de simple diffusion non tronque :   0.988742893
   Beta11(0) avant normalisation tronque :   0.751962249
   Parametre d'asymetrie tronque:   0.662780019
   Parametre d'asymetrie non tronque:   0.746423305
  
   1ere colonne : angle de diffusion 
   2eme colonne : fonction de phase tronquee
   3eme colonne : fonction de phase initiale 
   4eme colonne : fonction de phase polarisee tronquee 
                  Q(mu) tronquee
   5eme colonne : fonction de phase polarisee initiale 
                  Q(mu) 
   6eme colonne : fonction de phase polarisee tronquee 
                  U(mu) tronquee
   7eme colonne : fonction de phase polarisee initiale 
                  U(mu) 
  
 178.29    0.5025E+00    0.5025E+00   -0.2103E-01   -0.2103E-01   -0.3396E+00   -0.3396E+00
 176.07    0.4468E+00    0.4468E+00    0.2334E-01    0.2334E-01   -0.7117E-01   -0.7117E-01
 173.84    0.4013E+00    0.4013E+00    0.3829E-01    0.3829E-01    0.4041E-01    0.4041E-01
 171.61    0.3713E+00    0.3713E+00    0.3710E-01    0.3710E-01    0.7780E-01    0.7780E-01
 169.37    0.3603E+00    0.3603E+00    0.2874E-01    0.2874E-01    0.8366E-01    0.8366E-01
 167.14    0.3433E+00    0.3433E+00    0.1694E-01    0.1694E-01    0.7712E-01    0.7712E-01
 164.90    0.3234E+00    0.3234E+00    0.2987E-02    0.2987E-02    0.6438E-01    0.6438E-01
 162.67    0.3041E+00    0.3041E+00   -0.1409E-01   -0.1409E-01    0.5037E-01    0.5037E-01
 160.43    0.2921E+00    0.2921E+00   -0.2962E-01   -0.2962E-01    0.3768E-01    0.3768E-01
 158.20    0.2846E+00    0.2846E+00   -0.4609E-01   -0.4609E-01    0.2710E-01    0.2710E-01
 155.96    0.2813E+00    0.2813E+00   -0.6065E-01   -0.6065E-01    0.1824E-01    0.1824E-01
 153.72    0.2798E+00    0.2798E+00   -0.7239E-01   -0.7239E-01    0.1086E-01    0.1086E-01
 151.49    0.2770E+00    0.2770E+00   -0.7898E-01   -0.7898E-01    0.4877E-02    0.4877E-02
 149.25    0.2677E+00    0.2677E+00   -0.7436E-01   -0.7436E-01   -0.8756E-03   -0.8756E-03
 147.02    0.2448E+00    0.2448E+00   -0.5597E-01   -0.5597E-01   -0.4940E-02   -0.4940E-02
 144.78    0.2108E+00    0.2108E+00   -0.3041E-01   -0.3041E-01   -0.8351E-02   -0.8351E-02
 142.55    0.1784E+00    0.1784E+00   -0.1198E-01   -0.1198E-01   -0.9592E-02   -0.9592E-02
 140.31    0.1536E+00    0.1536E+00   -0.2160E-02   -0.2160E-02   -0.9487E-02   -0.9487E-02
 138.07    0.1353E+00    0.1353E+00    0.1954E-02    0.1954E-02   -0.8335E-02   -0.8335E-02
 135.84    0.1223E+00    0.1223E+00    0.3379E-02    0.3379E-02   -0.6974E-02   -0.6974E-02
 133.60    0.1129E+00    0.1129E+00    0.3081E-02    0.3081E-02   -0.5509E-02   -0.5509E-02
 131.37    0.1066E+00    0.1066E+00    0.2002E-02    0.2002E-02   -0.4060E-02   -0.4060E-02
 129.13    0.1022E+00    0.1022E+00    0.9399E-04    0.9399E-04   -0.2330E-02   -0.2330E-02
 126.89    0.9947E-01    0.9947E-01   -0.1632E-02   -0.1632E-02   -0.4729E-03   -0.4729E-03
 124.66    0.9793E-01    0.9793E-01   -0.3749E-02   -0.3749E-02    0.1675E-02    0.1675E-02
 122.42    0.9738E-01    0.9738E-01   -0.5795E-02   -0.5795E-02    0.4259E-02    0.4259E-02
 120.19    0.9827E-01    0.9827E-01   -0.8095E-02   -0.8095E-02    0.6850E-02    0.6850E-02
 117.95    0.9947E-01    0.9947E-01   -0.1038E-01   -0.1038E-01    0.1045E-01    0.1045E-01
